,position_lat_degrees,position_long_degrees,distance,altitude,energy,power,speed,cadence
0,22.5527899,114.0091419,3.95,26,280,280,3.947,47
1,22.55278897,114.0091594,8.79,26,397,117,4.843,63
2,22.55280607,114.0091923,13.79,25.8,692,295,5.001,71
3,22.5527899,114.0091419,19.29,25.6,968,276,5.496,75
4,22.55278897,114.0091594,25.49,25.6,1223,255,6.205,83
5,22.55280607,114.0091923,32.05,25.2,1465,242,6.559,83
6,22.55280532,114.0092237,38.87,25,1646,181,6.821,0
7,22.55279417,114.0092619,45.84,24.6,1646,0,6.97,0
8,22.55277473,114.009307,52.95,24.4,1646,0,7.11,0
9,22.55275092,114.0093575,60.14,24.2,1646,0,7.185,0
10,22.55272435,114.0094176,67.49,24,1646,0,7.353,0
11,22.55269753,114.0094878,75.01,24,1646,0,7.521,0
12,22.55267004,114.009558,82.66,23.6,1646,0,7.651,70
13,22.55264196,114.0096324,90.59,23.2,1776,130,7.931,81
14,22.55261329,114.0097003,98.98,22.8,2022,246,8.388,72
15,22.55258219,114.0097708,107.88,22.6,2413,391,8.892,81
16,22.55256006,114.0098539,117.3,22.4,2811,398,9.433,83
17,22.55253249,114.0099385,127.16,22,3181,370,9.853,83
18,22.55250634,114.0100335,137.06,21.8,3273,92,9.9,0
19,22.55247951,114.0101278,147.05,21,3273,0,9.984,0
20,22.55245353,114.0102237,156.99,20.2,3273,0,9.947,0
21,22.55242621,114.0103207,166.97,19.6,3273,0,9.984,0
22,22.55239444,114.0104174,177.01,19.2,3273,0,10.03,0
23,22.55235672,114.010514,186.99,18.8,3273,0,9.984,0
24,22.55232277,114.0106188,196.89,18.4,3273,0,9.9,0
25,22.55228992,114.0107252,206.76,18.2,3273,0,9.872,0
26,22.55225396,114.0108303,216.61,18,3273,0,9.853,0
27,22.55221725,114.0109379,226.38,18,3273,0,9.769,0
28,22.55217886,114.0110463,236.23,17.8,3273,0,9.853,0
29,22.55213477,114.0111522,246.04,17.6,3273,0,9.807,0
30,22.55209219,114.0112589,255.81,17.6,3273,0,9.769,0
31,22.55212817,114.0111858,265.4,17.4,3273,0,9.592,0
32,22.55210095,114.011267,274.15,17.2,3273,0,8.752,0
33,22.55207374,114.0113483,282.17,17,3273,0,8.015,0
34,22.55204652,114.0114296,289.88,16.8,3273,0,7.707,0
35,22.55201931,114.0115109,297.58,16.6,3273,0,7.707,0
36,22.55199209,114.0115922,305.37,16.6,3273,0,7.791,0
37,22.55196487,114.0116734,313.22,16.4,3273,0,7.847,0
38,22.55193766,114.0117547,321.21,16.2,3273,0,7.987,0
39,22.55191044,114.0118359,329.2,16.2,3273,0,7.987,0
40,22.55188323,114.0119172,337.33,16,3273,0,8.136,52
41,22.55185601,114.0119984,345.66,16,3426,153,8.323,69
42,22.55182879,114.0120797,354.24,15.6,3621,195,8.584,73
43,22.55180158,114.012161,363.07,15.4,3823,202,8.827,77
44,22.55177436,114.0122423,372.14,15.2,4031,208,9.079,79
45,22.55174715,114.0123235,381.49,15,4187,156,9.349,83
46,22.55171993,114.0124048,390.96,14.4,4361,174,9.471,83
47,22.54104869,113.9993142,400.47,14.2,4491,130,9.508,0
48,22.54100963,113.9994031,409.86,13.2,4491,0,9.387,0
49,22.54099187,113.9994862,419.29,12.6,4491,0,9.433,0
50,22.54094895,113.9995542,428.57,12.6,4491,0,9.275,0
51,22.54089145,113.9996134,437.68,12.8,4491,0,9.116,0
52,22.54083764,113.9996687,446.23,12.2,4491,0,8.547,0
53,22.54078324,113.9997175,453.63,13,4491,0,7.399,0
54,22.54073421,113.9997623,461.03,12.4,4491,0,7.399,0
55,22.5407042,113.9998089,467.6,12.6,4491,0,6.559,0
56,22.54069003,113.9998688,473.51,12.6,4491,0,5.925,0
57,22.54068173,113.9999098,478.84,12.6,4491,0,5.328,0
58,22.54067629,113.9999324,484.17,12.6,4491,0,5.328,0
59,22.5527899,114.0091419,487.33,12.4,4491,0,3.163,24
60,22.55278897,114.0091594,489.99,12.4,4491,0,2.659,0
61,22.55280607,114.0091923,492.65,12.4,4491,0,2.659,0
62,22.55280532,114.0092237,496.35,12.4,4711,220,3.695,74
63,22.55279417,114.0092619,501.45,12.4,5389,678,5.104,74
64,22.55277473,114.009307,507.69,12.4,5845,456,6.242,71
65,22.55275092,114.0093575,514.21,12.4,6327,482,6.522,71
66,22.55272435,114.0094176,521.51,12.2,6705,378,7.297,79
67,22.55269753,114.0094878,529.17,12.2,6985,280,7.651,59
68,22.55267004,114.009558,536.98,12.2,7354,369,7.819,78
69,22.55264196,114.0096324,545,12,7690,336,8.015,73
70,22.55261329,114.0097003,553.35,11.8,8234,544,8.351,77
71,22.55258219,114.0097708,562.54,11.6,8780,546,9.191,77
72,22.55256006,114.0098539,572.31,11.4,9263,483,9.769,0
73,22.55253249,114.0099385,582.03,11.2,9263,0,9.723,0
74,22.55250634,114.0100335,592,11,9329,66,9.965,77
75,22.55247951,114.0101278,602.36,11,9803,474,10.366,77
76,22.55245353,114.0102237,613.03,10.8,10285,482,10.665,80
77,22.55242621,114.0103207,623.59,10.6,10860,575,10.562,83
78,22.55239444,114.0104174,634.86,10.6,11371,511,11.271,83
79,22.55235672,114.010514,646.32,10.4,11819,448,11.449,80
80,22.55232277,114.0106188,657.81,10.2,12307,488,11.505,81
81,22.55228992,114.0107252,669.64,10.2,12825,518,11.813,83
82,22.55225396,114.0108303,681.52,10.2,13322,497,11.878,83
83,22.55221725,114.0109379,693.58,10,13790,468,12.074,85
84,22.55217886,114.0110463,705.86,9.8,14270,480,12.279,87
85,22.55213477,114.0111522,718.28,9.8,14759,489,12.419,87
86,22.55209219,114.0112589,730.7,9.8,15164,405,12.419,87
87,22.55204994,114.0113659,743.11,9.6,15561,397,12.419,88
88,22.55200594,114.0114724,755.6,9.2,15977,416,12.484,88
89,22.55195338,114.0115757,768.12,9.2,16437,460,12.522,88
90,22.55189831,114.011678,780.77,9,16879,442,12.634,89
91,22.55182187,114.0117601,793.54,8.8,17295,416,12.774,89
92,22.55175884,114.0118598,806.2,8.8,17527,232,12.671,51
93,22.55169874,114.0119665,818.7,8.4,17527,48,12.484,0
94,22.5516394,114.0120646,831.17,8.4,17623,48,12.484,85
95,22.55157989,114.0121639,843.65,8.2,17947,324,12.484,88
96,22.55151576,114.0122596,856.21,8,18299,352,12.559,87
97,22.55145013,114.0123505,868.63,7.8,18663,364,12.419,87
98,22.55138844,114.0124423,880.7,7.8,18845,182,12.074,0
99,22.55132021,114.012527,892.46,7.6,18845,0,11.757,0
100,22.55125467,114.0126097,903.91,7.6,18845,0,11.449,0
101,22.55118887,114.0126888,915.18,7.6,18845,0,11.271,0
102,22.55112098,114.0127638,926.17,7.6,18845,0,10.992,0
103,22.55105065,114.0128349,937.05,7.4,18845,0,10.88,0
104,22.55098091,114.0128934,947.77,7.4,18845,0,10.721,0
105,22.55091486,114.0129521,958.15,7.4,18845,0,10.366,0
106,22.55084437,114.0130081,968.26,7.4,18845,0,10.124,0
107,22.55077547,114.0130645,978.16,7.2,18845,0,9.9,0
108,22.55070565,114.0131179,987.76,7,18845,0,9.592,0
109,22.55063826,114.0131758,997.11,7,18845,0,9.349,0
110,22.55057154,114.0132371,1005.19,6.8,18845,0,8.08,0
111,22.55051102,114.0132932,1012.87,6.6,18845,0,7.679,0
112,22.55045922,114.0133341,1019.45,6.6,18845,0,6.578,57
113,22.55042017,114.0133644,1024.8,6.6,18845,0,5.356,57
114,22.55039091,114.0133857,1029.5,6.6,18845,0,4.703,0
115,22.55036526,114.0133897,1033.11,6.6,18845,0,3.611,0
116,22.55033987,114.0133886,1036.5,6.6,18845,0,3.387,0
117,22.55004491,114.0135729,1043.73,6.4,18964,119,7.231,23
118,22.54998607,114.013604,1051.36,6.4,19169,205,7.633,74
119,22.54992639,114.0136341,1059.35,6.4,19479,310,7.987,77
120,22.54986595,114.0136679,1067.61,6.4,19766,287,8.258,82
121,22.5498015,114.0137087,1076.09,6.2,19946,180,8.482,82
122,22.54973176,114.013762,1084.64,6,20033,87,8.547,74
123,22.54966755,114.0138145,1093.22,5.8,20156,123,8.584,73
124,22.54960528,114.0138685,1101.87,5.8,20314,158,8.65,82
125,22.54954551,114.0139236,1110.62,5.8,20552,238,8.752,87
126,22.54948072,114.013973,1119.63,5.8,20792,240,9.004,89
127,22.54941568,114.0140264,1128.74,5.8,20982,190,9.116,78
128,22.54934611,114.0140726,1137.98,5.6,21168,186,9.237,79
129,22.54927754,114.0141211,1147.29,5.4,21270,102,9.312,50
130,22.54920747,114.014174,1156.61,5.4,21270,29,9.312,0
131,22.5491379,114.0142284,1166.04,5.4,21329,30,9.433,82
132,22.54906967,114.0142838,1175.58,5.2,21573,244,9.536,82
133,22.54900027,114.0143355,1185.21,5.2,21802,229,9.639,83
134,22.54892894,114.0143883,1194.98,5,22090,288,9.769,84
135,22.54885434,114.0144397,1204.88,4.8,22350,260,9.9,85
136,22.5487784,114.0144877,1214.78,4.6,22664,314,9.9,87
137,22.54870112,114.0145383,1224.78,4.6,22927,263,9.993,87
138,22.54862635,114.0145929,1234.82,4.2,23143,216,10.04,88
139,22.54855067,114.0146466,1244.9,4,23349,206,10.086,87
140,22.54847556,114.0147012,1255.02,4,23534,185,10.114,88
141,22.54840122,114.0147578,1265.15,3.8,23716,182,10.133,88
142,22.54832536,114.0148142,1275.25,3.8,23716,81,10.086,0
143,22.54825017,114.0148696,1285.37,3.8,23716,81,10.133,84
144,22.54817415,114.0149221,1295.55,3.8,23960,82,10.18,89
145,22.5480993,114.0149798,1305.73,3.6,24133,173,10.18,77
146,22.54802378,114.0150388,1316.1,3.6,24342,209,10.376,78
147,22.54794675,114.0150949,1326.51,3.6,24531,189,10.404,79
148,22.54786771,114.0151504,1336.97,3.6,24707,176,10.46,79
149,22.5477911,114.0152076,1347.43,3.4,24885,178,10.46,80
150,22.54771197,114.0152669,1357.89,3,25083,198,10.46,79
151,22.54763285,114.0153185,1368.29,2.8,25275,192,10.404,81
152,22.54755012,114.015363,1378.75,2.6,25419,144,10.46,79
153,22.54746789,114.0154115,1389.14,2.4,25548,129,10.385,79
154,22.54738734,114.0154618,1399.45,2.2,25677,129,10.31,79
155,22.54730897,114.0155141,1409.71,2.2,25832,155,10.264,79
156,22.54722934,114.0155663,1420.02,2,26006,174,10.31,79
157,22.5471508,114.0156183,1430.34,1.8,26161,155,10.31,79
158,22.54706958,114.0156686,1440.65,2,26361,200,10.32,79
159,22.54698928,114.0157208,1450.94,2,26590,229,10.292,79
160,22.5469094,114.0157745,1461.36,2,26775,185,10.422,80
161,22.54683162,114.0158311,1471.68,1.6,26911,136,10.32,79
162,22.54675593,114.0158907,1481.96,1.4,27051,140,10.273,79
163,22.5466815,114.0159533,1492.08,1.2,27191,140,10.124,79
164,22.54660497,114.0160108,1502.02,1,27226,35,9.937,0
165,22.54653038,114.0160619,1511.82,1,27226,0,9.797,0
166,22.54645293,114.0161141,1521.4,0.8,27226,0,9.583,0
167,22.54637397,114.0161718,1530.98,0.6,27226,0,9.583,59
168,22.54629635,114.0162266,1540.78,0.6,27574,348,9.797,73
169,22.54621597,114.0162805,1550.86,0.4,28102,528,10.086,83
170,22.54613752,114.0163417,1561.45,0.4,28665,563,10.581,85
171,22.54605814,114.0163976,1572.43,0.4,29341,676,10.982,85
172,22.54597021,114.0164565,1583.44,0.4,29341,0,11.01,0
173,22.54588011,114.0165006,1594.63,0.2,29383,42,11.188,79
174,22.54578573,114.0165419,1605.99,-0.2,29617,234,11.365,83
175,22.54568934,114.0165719,1617.38,-0.6,29968,351,11.393,81
176,22.5455942,114.0166005,1628.75,-0.8,30259,291,11.365,82
177,22.54549823,114.0166318,1639.91,-0.8,30385,126,11.16,59
178,22.54540242,114.0166728,1650.81,-0.8,30437,52,10.898,0
179,22.54531064,114.0167107,1661.6,-0.8,30437,0,10.796,0
180,22.54522062,114.0167424,1672.14,-1,30437,0,10.534,0
181,22.54512641,114.0167679,1682.51,-1.2,30437,0,10.376,0
182,22.54503588,114.0167945,1692.74,-1.2,30437,0,10.226,0
183,22.5449441,114.0168228,1702.81,-1.2,30437,0,10.068,0
184,22.54485684,114.0168523,1712.75,-1.4,30437,0,9.947,0
185,22.54477101,114.0168796,1722.58,-1.4,30437,0,9.816,0
186,22.54468426,114.0168995,1732.34,-1.4,30437,0,9.769,0
187,22.5445965,114.0169091,1742.19,-1.2,30437,0,9.853,0
188,22.5445074,114.016907,1751.96,-1.2,30437,0,9.769,0
189,22.54442316,114.0168817,1761.64,-1.2,30437,0,9.676,0
190,22.54435242,114.0168296,1771.31,-1.4,30437,0,9.676,71
191,22.5442883,114.0167739,1781.08,-1.6,30638,201,9.769,74
192,22.54423415,114.0167024,1790.9,-1.8,31013,375,9.816,84
193,22.54420884,114.0166108,1800.79,-2,31418,405,9.881,85
194,22.54419308,114.0165191,1810.72,-2,31692,274,9.947,78
195,22.54417908,114.0164258,1820.77,-2,32078,386,10.04,77
196,22.54416433,114.0163282,1830.94,-1.8,32489,411,10.18,78
197,22.54414631,114.0162315,1841.28,-1.8,32964,475,10.329,80
198,22.54412326,114.0161373,1851.5,-1.8,33461,497,10.226,82
199,22.54410733,114.0160403,1862.24,-1.6,34057,596,10.74,83
200,22.5440925,114.0159425,1873.33,-1.6,34725,668,11.094,87
201,22.54406861,114.01585,1884.58,-1.6,35395,670,11.243,87
202,22.54403399,114.0157607,1895.82,-1.8,35841,446,11.243,39
203,22.54401396,114.0156582,1907.21,-1.8,35889,48,11.393,84
204,22.54399762,114.0155531,1918.63,-1.6,36261,372,11.421,91
205,22.54398085,114.0154478,1930.35,-1.4,36862,601,11.719,92
206,22.54396115,114.0153338,1942.07,-1.6,37546,684,11.719,95
207,22.54393542,114.0152199,1954.14,-1.2,38026,480,12.055,0
208,22.54390424,114.0151013,1966.11,-1,38026,0,11.981,0
209,22.54386937,114.0149901,1977.89,-1,38026,0,11.785,0
210,22.5438433,114.0148769,1989.21,-0.8,38026,0,11.318,0
211,22.54381321,114.0147684,2000.44,-0.6,38026,0,11.225,0
212,22.54377306,114.0146734,2011.32,-0.6,38026,0,10.88,0
213,22.54372336,114.01459,2022.15,-0.4,38026,0,10.833,0
214,22.54366703,114.014513,2032.98,-0.4,38244,218,10.833,85
215,22.54363284,114.0144065,2043.86,-0.4,38629,385,10.88,85
216,22.54360677,114.0142994,2054.87,-0.4,38998,369,11.01,88
217,22.54357659,114.0141963,2065.79,-0.4,39293,295,10.917,89
218,22.54354114,114.0141009,2076.69,-0.4,39380,87,10.889,0
219,22.54350535,114.0140105,2087.28,-0.4,39380,0,10.6,0
220,22.5434719,114.0139216,2097.73,-0.4,39380,0,10.441,0
221,22.54344475,114.0138211,2107.72,-0.4,39380,0,10.003,0
222,22.54342061,114.0137225,2117.2,-0.2,39380,0,9.48,0
223,22.54339672,114.0136259,2126.69,-0.2,39380,0,9.48,81
224,22.54337191,114.0135322,2136.16,-0.2,39380,0,9.48,47
225,22.54334584,114.0134397,2145.47,0.2,39380,0,9.312,0
226,22.54332069,114.0133468,2154.71,0.4,39380,0,9.237,79
227,22.54329295,114.0132649,2163.68,0.6,39416,36,8.967,69
228,22.54327116,114.013176,2172.65,0.6,39437,21,8.967,0
229,22.54325272,114.0130871,2181.38,0.6,39437,0,8.734,0
230,22.54267068,114.0122859,2187.23,0.6,39817,380,5.85,22
231,22.5426146,114.0122877,2193.69,0.4,40085,268,6.457,79
232,22.54255325,114.0122937,2200.57,0.2,40415,330,6.886,79
233,22.54249139,114.0123033,2207.69,0.2,40415,35,7.119,0
234,22.54243221,114.0123235,2214.86,0,40415,35,7.166,79
235,22.54237463,114.0123458,2222.12,-0.2,40522,37,7.259,79
236,22.54231662,114.0123697,2229.55,-0.2,40630,108,7.437,88
237,22.54225527,114.0123913,2237.12,-0.4,40630,0,7.567,0
238,22.54219006,114.0124164,2244.74,-0.4,40630,0,7.623,0
239,22.54212342,114.0124421,2252.35,-0.6,40630,0,7.595,0
240,22.54205779,114.0124645,2260.02,-0.6,40658,28,7.679,83
241,22.54198881,114.0124881,2267.86,-0.6,40806,148,7.847,83
242,22.54191899,114.012505,2275.82,-0.6,40806,0,7.959,0
243,22.54185051,114.0125229,2283.73,-0.6,40806,0,7.903,0
244,22.54178077,114.0125403,2291.57,-0.6,40806,0,7.847,0
245,22.54171271,114.0125599,2298.96,-0.6,40806,0,7.39,0
246,22.5416485,114.0125765,2306.35,-0.6,40806,0,7.39,0
247,22.54159268,114.0125876,2312.61,-0.6,40806,0,6.261,0
248,22.53864669,114.0126176,2319.45,-4.2,41035,229,6.839,21
249,22.53864627,114.0125551,2326.54,-4.2,41307,272,7.091,83
250,22.53864854,114.012498,2333.93,-4.4,41496,189,7.39,73
251,22.5386534,114.0124418,2341.4,-4.4,41720,224,7.465,77
252,22.53866027,114.0123852,2348.99,-4.4,41861,141,7.595,78
253,22.53865474,114.0123412,2356.59,-4.4,41985,124,7.595,77
254,22.53864493,114.012301,2364.21,-4.6,42130,145,7.623,82
255,22.53863202,114.0122605,2371.89,-4.6,42246,116,7.679,81
256,22.53861342,114.012212,2379.6,-4.4,42376,130,7.707,79
257,22.53860109,114.0121514,2387.28,-4.4,42506,130,7.679,78
258,22.53857293,114.0120947,2394.9,-4.4,42672,166,7.623,78
259,22.53855441,114.0120429,2402.52,-4.4,42833,161,7.623,78
260,22.53855055,114.0119731,2410.06,-4.2,43001,168,7.539,78
261,22.53854913,114.0119323,2417.56,-4.2,43173,172,7.493,78
262,22.53855449,114.0118788,2425.15,-4.2,43413,240,7.595,78
263,22.53856489,114.0118267,2432.88,-4.2,43662,249,7.726,79
264,22.53857394,114.0117738,2440.6,-4.2,43845,183,7.726,79
265,22.5385845,114.0117192,2448.46,-4.2,44029,184,7.847,82
266,22.53859741,114.0116677,2456.2,-4.2,44224,195,7.754,80
267,22.53860889,114.0116156,2463.91,-4,44448,224,7.707,81
268,22.53861987,114.011557,2471.81,-4,44671,223,7.903,83
269,22.53863471,114.0114886,2479.66,-4,44902,231,7.847,83
270,22.53865206,114.0114104,2487.68,-3.8,45119,217,8.015,88
271,22.53861484,114.0113104,2495.69,-3.8,45320,201,8.015,78
272,22.53861233,114.0112404,2503.77,-3.8,45551,231,8.08,84
273,22.53858106,114.0111762,2511.95,-3.6,45814,263,8.174,85
274,22.53849917,114.0109988,2520.18,-3.6,46126,312,8.23,85
275,22.53842457,114.0108872,2528.54,-3.6,46399,273,8.36,89
276,22.53838853,114.010766,2536.9,-3.6,46651,252,8.36,84
277,22.53835115,114.0106414,2545.1,-3.6,46879,228,8.202,88
278,22.53830672,114.0105387,2553.11,-3.6,46919,40,8.015,66
279,22.53828468,114.0104594,2561.1,-3.6,47047,128,7.987,78
280,22.5382706,114.0103779,2569.15,-3.6,47255,208,8.052,79
281,22.53824729,114.0102804,2577.17,-3.4,47481,226,8.015,79
282,22.53823154,114.0102015,2585.18,-3.4,47733,252,8.015,80
283,22.53820941,114.0101195,2593.24,-3,47975,242,8.052,78
284,22.53819583,114.0100273,2601.25,-3,48220,245,8.015,82
285,22.53818577,114.0099525,2609.27,-3,48501,281,8.015,80
286,22.53817345,114.009886,2617.33,-3,48807,306,8.052,82
287,22.53816155,114.0098231,2625.31,-3,49037,230,7.987,78
288,22.53815057,114.0097512,2633.26,-2.8,49274,237,7.959,81
289,22.53814017,114.0096849,2641.14,-2.8,49484,210,7.875,77
290,22.53813162,114.0096222,2648.96,-2.6,49668,184,7.819,77
291,22.5381266,114.0095648,2656.74,-2.6,49850,182,7.782,80
292,22.53812735,114.0095108,2664.07,-2.4,50038,188,7.334,80
293,22.53812903,114.0094585,2670.56,-2.2,50069,31,6.476,44
294,22.5381266,114.0094066,2677.03,-2.2,50069,0,6.476,0
295,22.53812324,114.009377,2682.05,-2,50069,0,5.02,0
296,22.53811738,114.0093861,2686.24,-2,50069,0,4.189,0
297,22.53811302,114.0093763,2690.43,-1.8,50069,0,4.189,0
298,22.53811033,114.0093612,2694.08,-1.8,50069,0,3.648,0
299,22.53810589,114.009321,2697.07,-1.6,50069,0,2.995,0
300,22.53747541,114.0083182,2702.6,0,50351,282,5.533,21
301,22.53746308,114.0082695,2708.21,0.2,50622,271,5.608,78
302,22.53744691,114.0082183,2713.97,0.4,50949,327,5.757,82
303,22.53743157,114.0081635,2720.05,0.4,51222,273,6.084,77
304,22.53741765,114.008102,2726.44,0.6,51529,307,6.392,79
305,22.53740449,114.008044,2733.08,0.6,51800,271,6.634,82
306,22.53739821,114.0079846,2739.9,0.6,51981,181,6.821,85
307,22.53738991,114.0079265,2746.85,0.6,52209,228,6.951,87
308,22.53738547,114.0078622,2753.94,0.6,52350,141,7.091,76
309,22.53738966,114.0077997,2761.11,0.8,52505,155,7.166,78
310,22.53740315,114.0077408,2768.27,1,52618,113,7.166,80
311,22.53741262,114.0076839,2775.49,1.2,52718,100,7.213,78
312,22.53741631,114.0076233,2782.85,1,52906,188,7.362,80
313,22.53741204,114.0075599,2790.24,1,53062,156,7.39,82
314,22.53740097,114.0074979,2797.64,0.8,53187,125,7.409,80
315,22.53739066,114.0074379,2805.11,0.8,53423,236,7.465,85
316,22.53738111,114.0073793,2812.73,0.8,53662,239,7.623,83
317,22.53736879,114.007319,2820.36,0.6,53811,149,7.623,87
318,22.53734658,114.0072522,2828.01,0.6,53962,151,7.651,82
319,22.53729947,114.0071791,2835.66,0.8,54113,151,7.651,83
320,22.53725789,114.0070999,2843.28,0.8,54252,139,7.623,83
321,22.537218,114.007024,2850.85,0.8,54391,139,7.567,84
322,22.53719646,114.0069539,2858.42,0.8,54537,146,7.567,82
323,22.53717014,114.006886,2865.93,1,54655,118,7.511,83
324,22.53715019,114.0068129,2873.42,1,54767,112,7.493,82
325,22.53712337,114.0067401,2880.89,1.2,54871,104,7.465,82
326,22.53709227,114.0066645,2888.35,1.2,54995,124,7.465,80
327,22.53707458,114.006592,2895.86,1.4,55142,147,7.511,84
328,22.53706218,114.0065235,2903.37,1.4,55367,225,7.511,91
329,22.53704064,114.0064508,2910.94,1.4,55497,130,7.567,82
330,22.53701859,114.006378,2918.53,1.4,55648,151,7.595,84
331,22.5369963,114.0063058,2926.13,1.4,55797,149,7.595,84
332,22.53697718,114.0062379,2933.78,1.6,55944,147,7.651,84
333,22.53696453,114.006174,2941.43,1.6,56078,134,7.651,82
334,22.53694869,114.0061122,2949.13,1.8,56273,195,7.698,87
335,22.53693251,114.0060552,2956.88,1.8,56396,123,7.754,85
336,22.53689655,114.0060164,2964.58,1.8,56507,111,7.698,83
337,22.53688708,114.0059668,2972.28,1.8,56619,112,7.698,85
338,22.53687819,114.0059151,2979.9,1.8,56783,164,7.614,84
339,22.5368673,114.0058673,2987.56,1.8,56920,137,7.67,85
340,22.53685875,114.0058164,2995.3,1.8,57021,101,7.726,85
341,22.5368533,114.0057537,3002.96,1.8,57145,124,7.67,84
342,22.53684928,114.0056879,3010.63,1.8,57287,142,7.67,85
343,22.53684852,114.0056218,3018.3,1.8,57456,169,7.67,84
344,22.53684316,114.00556,3026.06,1.8,57570,114,7.754,87
345,22.5368414,114.0054913,3033.75,1.8,57676,106,7.698,85
346,22.53688071,114.0053979,3041.45,1.8,57789,113,7.698,82
347,22.53689907,114.0053192,3049.12,1.8,57913,124,7.67,87
