#    s        x        y     Ue/Vinf    Dstar     Theta      Cf       H
   0.00000  1.00000  0.00157  0.86599  0.008359  0.004047  0.000751     2.066
   0.00312  0.99698  0.00234  0.87046  0.008058  0.003963  0.000806     2.033
   0.00803  0.99220  0.00350  0.87806  0.007589  0.003827  0.000903     1.983
   0.01326  0.98711  0.00471  0.88587  0.007161  0.003694  0.001000     1.938
   0.01881  0.98172  0.00600  0.89459  0.006731  0.003554  0.001111     1.894
   0.02467  0.97602  0.00736  0.90387  0.006322  0.003413  0.001230     1.852
   0.03083  0.97002  0.00878  0.91333  0.005948  0.003277  0.001351     1.815
   0.03730  0.96372  0.01024  0.92302  0.005604  0.003146  0.001475     1.781
   0.04406  0.95714  0.01176  0.93284  0.005287  0.003020  0.001602     1.751
   0.05108  0.95029  0.01333  0.94266  0.004998  0.002900  0.001729     1.724
   0.05835  0.94320  0.01494  0.95244  0.004735  0.002786  0.001856     1.700
   0.06582  0.93591  0.01657  0.96189  0.004501  0.002681  0.001978     1.679
   0.07347  0.92845  0.01823  0.97136  0.004282  0.002580  0.002103     1.660
   0.08126  0.92083  0.01991  0.98065  0.004082  0.002485  0.002225     1.643
   0.08918  0.91310  0.02159  0.98945  0.003905  0.002399  0.002341     1.628
   0.09720  0.90526  0.02328  0.99806  0.003741  0.002317  0.002455     1.615
   0.10531  0.89733  0.02496  1.00620  0.003595  0.002242  0.002563     1.604
   0.11349  0.88932  0.02664  1.01405  0.003460  0.002171  0.002667     1.594
   0.12173  0.88125  0.02832  1.02153  0.003337  0.002105  0.002766     1.585
   0.13003  0.87312  0.02998  1.02874  0.003223  0.002043  0.002863     1.577
   0.13837  0.86495  0.03164  1.03589  0.003114  0.001983  0.002960     1.570
   0.14673  0.85675  0.03329  1.04270  0.003013  0.001927  0.003052     1.563
   0.15512  0.84852  0.03492  1.04948  0.002916  0.001873  0.003146     1.557
   0.16352  0.84028  0.03653  1.05575  0.002829  0.001822  0.003233     1.552
   0.17193  0.83203  0.03813  1.06200  0.002744  0.001773  0.003320     1.547
   0.18035  0.82375  0.03971  1.06799  0.002664  0.001727  0.003405     1.543
   0.18878  0.81547  0.04127  1.07392  0.002587  0.001682  0.003491     1.538
   0.19722  0.80717  0.04282  1.07946  0.002517  0.001639  0.003570     1.535
   0.20567  0.79886  0.04434  1.08509  0.002446  0.001598  0.003653     1.531
   0.21412  0.79054  0.04585  1.09040  0.002381  0.001558  0.003732     1.528
   0.22258  0.78222  0.04734  1.09575  0.002316  0.001519  0.003814     1.525
   0.23104  0.77388  0.04882  1.10098  0.002253  0.001481  0.003895     1.522
   0.23950  0.76555  0.05027  1.10612  0.002193  0.001444  0.003977     1.519
   0.24796  0.75722  0.05170  1.11113  0.002134  0.001408  0.004057     1.516
   0.25641  0.74888  0.05312  1.11595  0.002078  0.001373  0.004137     1.514
   0.26487  0.74054  0.05451  1.12076  0.002023  0.001339  0.004217     1.511
   0.27333  0.73220  0.05589  1.12559  0.001969  0.001305  0.004301     1.509
   0.28178  0.72385  0.05725  1.13014  0.001918  0.001273  0.004381     1.506
   0.29024  0.71550  0.05858  1.13470  0.001867  0.001241  0.004463     1.504
   0.29869  0.70715  0.05990  1.13921  0.001817  0.001210  0.004546     1.502
   0.30714  0.69880  0.06120  1.14368  0.001768  0.001179  0.004631     1.500
   0.31559  0.69044  0.06247  1.14808  0.001720  0.001148  0.004716     1.498
   0.32404  0.68209  0.06373  1.15241  0.001673  0.001119  0.004802     1.496
   0.33248  0.67374  0.06497  1.15667  0.001627  0.001089  0.004889     1.494
   0.34092  0.66539  0.06618  1.16106  0.001581  0.001060  0.004981     1.491
   0.34936  0.65704  0.06738  1.16514  0.001537  0.001032  0.005068     1.490
   0.35779  0.64869  0.06855  1.16921  0.001494  0.001004  0.005155     1.488
   0.36621  0.64035  0.06970  1.17350  0.001450  0.000975  0.005250     1.487
   0.37463  0.63201  0.07083  1.17740  0.001408  0.000948  0.005336     1.486
   0.38304  0.62367  0.07194  1.18142  0.001367  0.000921  0.005424     1.485
   0.39144  0.61533  0.07302  1.18523  0.001328  0.000894  0.005505     1.485
   0.39984  0.60700  0.07409  1.18918  0.001289  0.000868  0.005587     1.485
   0.40824  0.59867  0.07513  1.19279  0.001252  0.000842  0.005654     1.487
   0.41663  0.59034  0.07615  1.19662  0.001216  0.000816  0.005718     1.490
   0.42501  0.58202  0.07714  1.20008  0.001182  0.000791  0.005758     1.495
   0.43339  0.57370  0.07812  1.20353  0.001151  0.000766  0.005778     1.502
   0.44176  0.56538  0.07906  1.20680  0.001123  0.000743  0.005762     1.513
   0.45013  0.55707  0.07999  1.21006  0.001099  0.000719  0.005703     1.528
   0.45848  0.54876  0.08089  1.21320  0.001080  0.000696  0.005578     1.551
   0.46682  0.54047  0.08177  1.21581  0.001071  0.000676  0.005348     1.585
   0.47515  0.53218  0.08262  1.21870  0.001071  0.000655  0.005001     1.635
   0.48347  0.52390  0.08344  1.22148  0.001089  0.000637  0.004474     1.711
   0.49177  0.51564  0.08424  1.22479  0.001133  0.000619  0.003731     1.831
   0.50006  0.50739  0.08502  1.23019  0.001212  0.000600  0.002777     2.022
   0.50834  0.49914  0.08576  1.24019  0.001337  0.000574  0.001727     2.328
   0.51661  0.49090  0.08648  1.25676  0.001498  0.000538  0.000841     2.783
   0.52487  0.48267  0.08717  1.27671  0.001657  0.000497  0.000327     3.336
   0.53313  0.47444  0.08784  1.28434  0.001754  0.000481  0.000131     3.649
   0.54137  0.46622  0.08847  1.28650  0.001797  0.000476  0.000068     3.775
   0.54960  0.45801  0.08908  1.28901  0.001809  0.000470  0.000038     3.845
   0.55781  0.44982  0.08966  1.29171  0.001800  0.000465  0.000028     3.872
   0.56600  0.44165  0.09021  1.29454  0.001774  0.000459  0.000031     3.864
   0.57416  0.43351  0.09074  1.29747  0.001737  0.000453  0.000045     3.835
   0.58229  0.42539  0.09123  1.30054  0.001690  0.000447  0.000072     3.781
   0.59039  0.41731  0.09168  1.30373  0.001638  0.000441  0.000107     3.717
   0.59845  0.40926  0.09210  1.30704  0.001585  0.000434  0.000149     3.650
   0.60647  0.40125  0.09249  1.31049  0.001529  0.000428  0.000200     3.577
   0.61445  0.39327  0.09283  1.31405  0.001475  0.000421  0.000257     3.506
   0.62241  0.38532  0.09314  1.31770  0.001423  0.000414  0.000318     3.438
   0.63034  0.37740  0.09341  1.32140  0.001375  0.000407  0.000380     3.377
   0.63823  0.36951  0.09364  1.32519  0.001327  0.000400  0.000449     3.316
   0.64611  0.36164  0.09382  1.32900  0.001282  0.000393  0.000518     3.261
   0.65395  0.35379  0.09397  1.33278  0.001241  0.000386  0.000588     3.212
   0.66177  0.34597  0.09407  1.33654  0.001202  0.000379  0.000657     3.168
   0.66957  0.33817  0.09414  1.34034  0.001164  0.000373  0.000732     3.124
   0.67734  0.33040  0.09415  1.34392  0.001132  0.000366  0.000794     3.092
   0.68509  0.32265  0.09413  1.34760  0.001098  0.000359  0.000868     3.056
   0.69281  0.31493  0.09406  1.35109  0.001068  0.000353  0.000932     3.029
   0.70051  0.30724  0.09395  1.35460  0.001039  0.000346  0.001003     3.000
   0.70818  0.29957  0.09379  1.35797  0.001011  0.000340  0.001069     2.976
   0.71582  0.29193  0.09358  1.36129  0.000985  0.000334  0.001137     2.952
   0.72343  0.28432  0.09333  1.36454  0.000959  0.000327  0.001207     2.930
   0.73102  0.27674  0.09303  1.36763  0.000936  0.000321  0.001271     2.912
   0.73858  0.26919  0.09269  1.37067  0.000912  0.000315  0.001337     2.895
   0.74610  0.26168  0.09230  1.37364  0.000890  0.000309  0.001404     2.879
   0.75359  0.25420  0.09186  1.37661  0.000867  0.000303  0.001479     2.861
   0.76104  0.24677  0.09137  1.37928  0.000847  0.000297  0.001539     2.850
   0.76845  0.23938  0.09083  1.38216  0.000824  0.000291  0.001622     2.831
   0.77581  0.23203  0.09025  1.38472  0.000805  0.000285  0.001691     2.819
   0.78313  0.22474  0.08962  1.38734  0.000783  0.000279  0.001775     2.803
   0.79040  0.21751  0.08894  1.38971  0.000764  0.000274  0.001850     2.792
   0.79761  0.21033  0.08821  1.39194  0.000745  0.000268  0.001924     2.781
   0.80477  0.20322  0.08743  1.39419  0.000726  0.000262  0.002011     2.768
   0.81187  0.19617  0.08660  1.39615  0.000708  0.000257  0.002086     2.759
   0.81890  0.18919  0.08572  1.39816  0.000690  0.000251  0.002179     2.747
   0.82586  0.18229  0.08480  1.39988  0.000672  0.000246  0.002262     2.738
   0.83275  0.17547  0.08383  1.40141  0.000656  0.000240  0.002340     2.731
   0.83955  0.16875  0.08281  1.40288  0.000639  0.000235  0.002426     2.723
   0.84627  0.16212  0.08175  1.40410  0.000624  0.000229  0.002501     2.719
   0.85288  0.15559  0.08064  1.40548  0.000607  0.000224  0.002602     2.709
   0.85939  0.14919  0.07950  1.40670  0.000590  0.000218  0.002711     2.699
   0.86578  0.14291  0.07831  1.40765  0.000573  0.000213  0.002817     2.691
   0.87204  0.13676  0.07709  1.40836  0.000558  0.000208  0.002920     2.683
   0.87818  0.13076  0.07584  1.40898  0.000542  0.000203  0.003038     2.674
   0.88417  0.12491  0.07456  1.40931  0.000527  0.000198  0.003151     2.667
   0.89001  0.11921  0.07325  1.40926  0.000513  0.000193  0.003246     2.664
   0.89571  0.11367  0.07192  1.40936  0.000498  0.000188  0.003377     2.655
   0.90124  0.10831  0.07057  1.40916  0.000484  0.000183  0.003509     2.647
   0.90661  0.10312  0.06920  1.40832  0.000472  0.000178  0.003590     2.648
   0.91181  0.09810  0.06782  1.40785  0.000458  0.000173  0.003727     2.640
   0.91683  0.09328  0.06644  1.40673  0.000447  0.000169  0.003807     2.643
   0.92168  0.08863  0.06505  1.40608  0.000433  0.000164  0.003956     2.635
   0.92634  0.08418  0.06367  1.40514  0.000420  0.000160  0.004106     2.628
   0.93083  0.07991  0.06229  1.40383  0.000408  0.000156  0.004241     2.624
   0.93514  0.07582  0.06091  1.40274  0.000395  0.000151  0.004447     2.610
   0.93928  0.07191  0.05954  1.40057  0.000385  0.000147  0.004556     2.610
   0.94325  0.06818  0.05819  1.39883  0.000372  0.000143  0.004750     2.600
   0.94706  0.06462  0.05685  1.39638  0.000362  0.000139  0.004894     2.596
   0.95071  0.06122  0.05552  1.39381  0.000352  0.000136  0.005046     2.592
   0.95421  0.05798  0.05421  1.39125  0.000341  0.000132  0.005242     2.584
   0.95756  0.05489  0.05291  1.38832  0.000330  0.000128  0.005440     2.576
   0.96077  0.05194  0.05163  1.38480  0.000321  0.000125  0.005598     2.572
   0.96386  0.04913  0.05036  1.38136  0.000311  0.000121  0.005815     2.563
   0.96681  0.04645  0.04911  1.37713  0.000303  0.000118  0.005956     2.562
   0.96965  0.04389  0.04787  1.37303  0.000294  0.000115  0.006146     2.556
   0.97237  0.04146  0.04666  1.36852  0.000286  0.000112  0.006312     2.554
   0.97499  0.03913  0.04546  1.36388  0.000278  0.000109  0.006490     2.551
   0.97751  0.03691  0.04427  1.35908  0.000270  0.000106  0.006681     2.547
   0.97993  0.03479  0.04310  1.35425  0.000261  0.000103  0.006938     2.537
   0.98226  0.03277  0.04195  1.34914  0.000252  0.000100  0.007268     2.522
   0.98451  0.03083  0.04081  1.34241  0.000246  0.000097  0.007390     2.525
   0.98667  0.02899  0.03968  1.33672  0.000236  0.000094  0.007807     2.504
   0.98876  0.02722  0.03856  1.32904  0.000230  0.000092  0.008001     2.500
   0.99078  0.02554  0.03745  1.32089  0.000224  0.000090  0.008141     2.501
   0.99272  0.02392  0.03636  1.31323  0.000216  0.000087  0.008470     2.489
   0.99461  0.02238  0.03527  1.30416  0.000211  0.000085  0.008614     2.490
   0.99644  0.02090  0.03420  1.29517  0.000205  0.000082  0.008817     2.488
   0.99821  0.01949  0.03313  1.28598  0.000198  0.000080  0.009075     2.482
   0.99992  0.01814  0.03207  1.27647  0.000191  0.000077  0.009446     2.469
   1.00159  0.01685  0.03102  1.26595  0.000184  0.000075  0.009869     2.453
   1.00320  0.01562  0.02998  1.25364  0.000179  0.000073  0.010122     2.447
   1.00477  0.01444  0.02894  1.24084  0.000172  0.000071  0.010501     2.434
   1.00630  0.01332  0.02791  1.22640  0.000167  0.000069  0.010725     2.428
   1.00779  0.01224  0.02688  1.21139  0.000162  0.000067  0.011036     2.418
   1.00923  0.01122  0.02585  1.19518  0.000156  0.000065  0.011351     2.408
   1.01065  0.01025  0.02483  1.17745  0.000152  0.000063  0.011537     2.403
   1.01202  0.00932  0.02381  1.15939  0.000146  0.000061  0.012101     2.378
   1.01337  0.00844  0.02279  1.13692  0.000146  0.000060  0.011273     2.425
   1.01468  0.00760  0.02178  1.12064  0.000138  0.000058  0.012280     2.382
   1.01597  0.00681  0.02077  1.09839  0.000133  0.000056  0.012496     2.373
   1.01723  0.00606  0.01976  1.07462  0.000129  0.000055  0.012557     2.372
   1.01846  0.00536  0.01875  1.05028  0.000125  0.000053  0.012887     2.358
   1.01966  0.00470  0.01775  1.02343  0.000120  0.000051  0.013233     2.340
   1.02083  0.00408  0.01674  0.99353  0.000117  0.000050  0.012969     2.348
   1.02198  0.00351  0.01574  0.96413  0.000113  0.000048  0.013270     2.330
   1.02311  0.00299  0.01475  0.93156  0.000110  0.000047  0.013051     2.334
   1.02422  0.00250  0.01375  0.89806  0.000104  0.000046  0.013794     2.289
   1.02531  0.00206  0.01275  0.85768  0.000104  0.000045  0.013053     2.302
   1.02638  0.00167  0.01176  0.81865  0.000100  0.000044  0.013094     2.281
   1.02743  0.00131  0.01077  0.77623  0.000099  0.000043  0.012465     2.286
   1.02847  0.00100  0.00978  0.73389  0.000096  0.000042  0.012215     2.271
   1.02949  0.00072  0.00879  0.68902  0.000095  0.000042  0.011680     2.266
   1.03050  0.00049  0.00781  0.64304  0.000093  0.000041  0.011114     2.258
   1.03150  0.00030  0.00683  0.59665  0.000093  0.000041  0.010237     2.269
   1.03248  0.00014  0.00586  0.54956  0.000090  0.000040  0.010101     2.229
   1.03346  0.00002  0.00489  0.50001  0.000092  0.000040  0.008536     2.279
   1.03442 -0.00006  0.00393  0.45310  0.000087  0.000039  0.008675     2.214
   1.03538 -0.00011  0.00298  0.39979  0.000090  0.000040  0.007161     2.247
   1.03633 -0.00011  0.00202  0.35413  0.000089  0.000039  0.006174     2.287
   1.03728 -0.00008  0.00107  0.30355  0.000082  0.000037  0.006225     2.195
   1.03823 -0.00001  0.00013  0.24503  0.000088  0.000039  0.004518     2.232
   1.03918  0.00010 -0.00082  0.19579  0.000087  0.000039  0.003563     2.257
   1.04014  0.00025 -0.00176  0.14207  0.000085  0.000039  0.002831     2.183
   1.04110  0.00043 -0.00270  0.09052  0.000095  0.000042  0.001502     2.261
   1.04207  0.00066 -0.00365  0.04302  0.000083  0.000037  0.000836     2.230
   1.04305  0.00093 -0.00459 -0.01472  0.000083  0.000037  0.000286     2.230
   1.04405  0.00124 -0.00554 -0.06504  0.000094  0.000042  0.001111     2.244
   1.04507  0.00159 -0.00650 -0.11506  0.000090  0.000041  0.002114     2.210
   1.04610  0.00198 -0.00745 -0.16639  0.000092  0.000041  0.002908     2.246
   1.04715  0.00242 -0.00840 -0.21474  0.000094  0.000042  0.003681     2.239
   1.04822  0.00290 -0.00936 -0.26363  0.000095  0.000042  0.004521     2.234
   1.04931  0.00343 -0.01032 -0.30842  0.000099  0.000044  0.004897     2.264
   1.05042  0.00400 -0.01127 -0.35597  0.000097  0.000044  0.006030     2.220
   1.05156  0.00462 -0.01222 -0.40145  0.000101  0.000045  0.006282     2.264
   1.05271  0.00529 -0.01316 -0.44333  0.000104  0.000046  0.006770     2.262
   1.05389  0.00601 -0.01410 -0.48359  0.000107  0.000047  0.007152     2.267
   1.05510  0.00677 -0.01503 -0.52352  0.000109  0.000048  0.007658     2.262
   1.05633  0.00759 -0.01596 -0.55686  0.000117  0.000051  0.007314     2.308
   1.05759  0.00845 -0.01687 -0.59270  0.000116  0.000051  0.008169     2.263
   1.05888  0.00936 -0.01778 -0.62678  0.000121  0.000053  0.008162     2.287
   1.06019  0.01032 -0.01868 -0.65491  0.000128  0.000055  0.007798     2.322
   1.06153  0.01132 -0.01957 -0.68275  0.000131  0.000057  0.008067     2.307
   1.06291  0.01237 -0.02046 -0.71049  0.000134  0.000058  0.008226     2.304
   1.06431  0.01347 -0.02134 -0.73501  0.000140  0.000060  0.007989     2.327
   1.06575  0.01461 -0.02221 -0.75851  0.000145  0.000062  0.008010     2.327
   1.06722  0.01580 -0.02307 -0.78301  0.000147  0.000064  0.008256     2.314
   1.06873  0.01705 -0.02393 -0.80353  0.000155  0.000066  0.007838     2.346
   1.07028  0.01834 -0.02478 -0.82426  0.000158  0.000068  0.007915     2.339
   1.07187  0.01969 -0.02562 -0.84315  0.000164  0.000070  0.007717     2.352
   1.07351  0.02110 -0.02646 -0.86144  0.000169  0.000072  0.007645     2.355
   1.07520  0.02257 -0.02730 -0.87730  0.000177  0.000074  0.007328     2.375
   1.07695  0.02411 -0.02813 -0.89214  0.000183  0.000077  0.007135     2.383
   1.07875  0.02571 -0.02896 -0.90638  0.000190  0.000079  0.006996     2.387
   1.08062  0.02738 -0.02979 -0.92002  0.000196  0.000082  0.006860     2.391
   1.08255  0.02912 -0.03062 -0.93247  0.000203  0.000085  0.006645     2.401
   1.08454  0.03094 -0.03145 -0.94573  0.000208  0.000087  0.006652     2.392
   1.08661  0.03283 -0.03228 -0.95666  0.000217  0.000090  0.006328     2.413
   1.08876  0.03481 -0.03310 -0.96873  0.000222  0.000092  0.006334     2.404
   1.09099  0.03688 -0.03393 -0.97919  0.000230  0.000095  0.006098     2.417
   1.09330  0.03904 -0.03475 -0.98881  0.000239  0.000098  0.005882     2.428
   1.09570  0.04130 -0.03558 -0.99765  0.000247  0.000101  0.005673     2.438
   1.09820  0.04366 -0.03640 -1.00563  0.000257  0.000105  0.005453     2.450
   1.10080  0.04613 -0.03722 -1.01414  0.000264  0.000108  0.005382     2.446
   1.10351  0.04871 -0.03804 -1.02105  0.000274  0.000111  0.005127     2.462
   1.10634  0.05141 -0.03886 -1.02847  0.000282  0.000115  0.005033     2.460
   1.10929  0.05425 -0.03968 -1.03519  0.000292  0.000118  0.004870     2.467
   1.11236  0.05721 -0.04050 -1.04179  0.000301  0.000122  0.004741     2.470
   1.11558  0.06032 -0.04132 -1.04737  0.000312  0.000126  0.004536     2.483
   1.11895  0.06359 -0.04213 -1.05331  0.000321  0.000129  0.004436     2.483
   1.12247  0.06702 -0.04294 -1.05780  0.000335  0.000134  0.004204     2.500
   1.12615  0.07061 -0.04375 -1.06262  0.000345  0.000138  0.004088     2.503
   1.13001  0.07439 -0.04456 -1.06694  0.000357  0.000142  0.003942     2.509
   1.13405  0.07834 -0.04535 -1.07090  0.000370  0.000147  0.003798     2.517
   1.13827  0.08249 -0.04614 -1.07484  0.000381  0.000151  0.003687     2.519
   1.14269  0.08684 -0.04692 -1.07808  0.000395  0.000156  0.003532     2.529
   1.14731  0.09139 -0.04769 -1.08091  0.000410  0.000161  0.003385     2.539
   1.15212  0.09615 -0.04844 -1.08420  0.000421  0.000166  0.003313     2.536
   1.15714  0.10111 -0.04917 -1.08576  0.000440  0.000172  0.003100     2.560
   1.16236  0.10629 -0.04988 -1.08803  0.000453  0.000177  0.003017     2.559
   1.16779  0.11167 -0.05057 -1.08991  0.000468  0.000182  0.002910     2.565
   1.17343  0.11727 -0.05124 -1.09108  0.000486  0.000188  0.002770     2.578
   1.17926  0.12307 -0.05187 -1.09210  0.000502  0.000194  0.002655     2.586
   1.18529  0.12907 -0.05247 -1.09316  0.000518  0.000200  0.002569     2.589
   1.19151  0.13526 -0.05305 -1.09342  0.000538  0.000206  0.002438     2.604
   1.19791  0.14164 -0.05358 -1.09379  0.000555  0.000213  0.002349     2.610
   1.20448  0.14819 -0.05408 -1.09397  0.000572  0.000219  0.002262     2.616
   1.21121  0.15490 -0.05455 -1.09389  0.000591  0.000225  0.002171     2.624
   1.21809  0.16177 -0.05497 -1.09345  0.000611  0.000232  0.002075     2.635
   1.22511  0.16878 -0.05536 -1.09301  0.000629  0.000238  0.001997     2.641
   1.23226  0.17592 -0.05570 -1.09222  0.000649  0.000245  0.001910     2.652
   1.23953  0.18318 -0.05600 -1.09149  0.000668  0.000251  0.001842     2.658
   1.24691  0.19056 -0.05627 -1.09037  0.000689  0.000258  0.001760     2.670
   1.25440  0.19804 -0.05649 -1.08922  0.000710  0.000265  0.001690     2.679
   1.26198  0.20562 -0.05668 -1.08805  0.000730  0.000272  0.001629     2.686
   1.26965  0.21329 -0.05683 -1.08659  0.000751  0.000279  0.001559     2.697
